# New eGalICS format
# filter of COBE 12 micron
# After the "START" signal, the file is bild as follow:
# File name
# nwave: number of wavelenght
# center wavelenght [micron]
# and for l=1 to nwave, lambda [micron] | transmission [without unit]
START 
COBE_60
130
60.0
30.1100     0.00000
30.3500     0.01000000
30.5900     0.01000000
30.8300     0.01000000
31.0700     0.01000000
31.3100     0.01000000
31.5500     0.01000000
31.8000     0.01000000
32.0500     0.0200000
32.3000     0.0200000
32.5500     0.0200000
32.8100     0.0200000
33.0600     0.0200000
33.3200     0.0200000
33.5800     0.0200000
33.8400     0.0200000
34.1100     0.0200000
34.3700     0.0200000
34.6400     0.01000000
34.9100     0.01000000
35.1800     0.01000000
35.4600     0.01000000
35.7400     0.01000000
36.0200     0.00000
36.3000     0.00000
36.5800     0.00000
36.8700     0.00000
37.1500     0.00000
37.4400     0.00000
37.7400     0.00000
38.0300     0.0300000
38.3300     0.0600000
38.6300     0.0900000
38.9300     0.110000
39.2300     0.130000
39.5400     0.160000
39.8500     0.190000
40.1600     0.220000
40.4700     0.240000
40.7900     0.270000
41.1100     0.300000
41.4300     0.340000
41.7500     0.370000
42.0800     0.390000
42.4100     0.420000
42.7400     0.450000
43.0700     0.480000
43.4100     0.500000
43.7500     0.530000
44.0900     0.560000
44.4400     0.590000
44.7800     0.620000
45.1300     0.650000
45.4900     0.670000
45.8400     0.690000
46.2000     0.700000
46.5600     0.720000
46.9200     0.730000
47.2900     0.740000
47.6600     0.750000
48.0300     0.760000
48.4100     0.770000
48.7800     0.780000
49.1700     0.790000
49.5500     0.800000
49.9400     0.810000
50.3300     0.830000
50.7200     0.840000
51.1200     0.850000
51.5200     0.860000
51.9200     0.870000
52.3200     0.880000
52.7300     0.890000
53.1400     0.890000
53.5600     0.890000
53.9800     0.890000
54.4000     0.900000
54.8200     0.900000
55.2500     0.910000
55.6800     0.920000
56.1200     0.940000
56.5600     0.960000
57.0000     0.970000
57.4400     0.980000
57.8900     0.980000
58.3500     0.990000
58.8000     0.990000
59.2600     0.990000
59.7200     0.990000
60.1900     1.00000
60.6600     1.00000
61.1300     1.00000
61.6100     1.00000
62.0900     1.00000
62.5800     1.00000
63.0700     0.970000
63.5600     0.950000
64.0600     0.930000
64.5600     0.900000
65.0600     0.880000
65.5700     0.840000
66.0800     0.800000
66.6000     0.770000
67.1200     0.730000
67.6400     0.690000
68.1700     0.660000
68.7000     0.620000
69.2400     0.580000
69.7800     0.550000
70.3200     0.520000
70.8700     0.490000
71.4300     0.460000
71.9900     0.420000
72.5500     0.370000
73.1100     0.320000
73.6900     0.270000
74.2600     0.230000
74.8400     0.200000
75.4300     0.170000
76.0100     0.140000
76.6100     0.100000
77.2100     0.0800000
77.8100     0.0700000
78.4200     0.0600000
79.0300     0.0400000
79.6500     0.0300000
80.2700     0.0200000
80.9000     0.01000000
81.5300     0.01000000
82.1700     0.00000
