# New G.A.S. format
# filter of COBE 12 micron
# After the "START" signal, the file is bild as follow:
# File name
# nwave: number of wavelenght
# center wavelenght [micron]
# and for l=1 to nwave, lambda [micron] | transmission [without unit]
START 
COBE_12
109
12.0
7.60000     0.00000
7.66000     0.01000000
7.72000     0.01000000
7.78000     0.0200000
7.84000     0.0300000
7.90000     0.0300000
7.96000     0.0400000
8.02000     0.150000
8.09000     0.210000
8.15000     0.250000
8.21000     0.290000
8.28000     0.320000
8.34000     0.350000
8.41000     0.380000
8.47000     0.410000
8.54000     0.450000
8.60000     0.500000
8.67000     0.540000
8.74000     0.590000
8.81000     0.630000
8.88000     0.680000
8.95000     0.710000
9.02000     0.720000
9.09000     0.710000
9.16000     0.710000
9.23000     0.720000
9.30000     0.720000
9.37000     0.730000
9.45000     0.730000
9.52000     0.730000
9.59000     0.700000
9.67000     0.670000
9.75000     0.650000
9.82000     0.610000
9.90000     0.570000
9.98000     0.530000
10.0500     0.530000
10.1300     0.550000
10.2100     0.570000
10.2900     0.590000
10.3700     0.610000
10.4500     0.640000
10.5300     0.650000
10.6200     0.640000
10.7000     0.620000
10.7800     0.610000
10.8700     0.590000
10.9500     0.580000
11.0400     0.590000
11.1200     0.640000
11.2100     0.690000
11.3000     0.740000
11.3900     0.780000
11.4700     0.830000
11.5600     0.840000
11.6500     0.840000
11.7500     0.840000
11.8400     0.840000
11.9300     0.830000
12.0200     0.840000
12.1200     0.870000
12.2100     0.900000
12.3100     0.940000
12.4000     0.970000
12.5000     1.00000
12.6000     0.980000
12.7000     0.970000
12.8000     0.950000
12.9000     0.940000
13.0000     0.910000
13.1000     0.860000
13.2000     0.800000
13.3000     0.750000
13.4100     0.690000
13.5100     0.640000
13.6200     0.720000
13.7200     0.780000
13.8300     0.830000
13.9400     0.870000
14.0500     0.910000
14.1600     0.910000
14.2700     0.910000
14.3800     0.900000
14.4900     0.890000
14.6100     0.860000
14.7200     0.820000
14.8300     0.790000
14.9500     0.790000
15.0700     0.780000
15.1800     0.760000
15.3000     0.730000
15.4200     0.710000
15.5400     0.710000
15.6600     0.740000
15.7900     0.760000
15.9100     0.790000
16.0300     0.830000
16.1600     0.900000
16.2900     0.950000
16.4100     0.970000
16.5400     0.770000
16.6700     0.520000
16.8000     0.410000
16.9300     0.290000
17.0600     0.160000
17.2000     0.0300000
17.3300     0.0200000
17.4700     0.01000000
17.6000     0.00000
