# New eGalICS format
# filter of SDSS III z band (~0.89 micron)
# After the "START" signal, the file is bild as follow:
# File name
# nwave: number of wavelenght
# center wavelenght [micron]
# and for l=1 to nwave, lambda [micron] | transmission [without unit]
START
SDSS_z
141
0.8931
0.7730   0.0000
0.7755   0.0000
0.7780   0.0001
0.7805   0.0001
0.7830   0.0001
0.7855   0.0002
0.7880   0.0002
0.7905   0.0003
0.7930   0.0005
0.7955   0.0007
0.7980   0.0011
0.8005   0.0017
0.8030   0.0027
0.8055   0.0040
0.8080   0.0057
0.8105   0.0079
0.8130   0.0106
0.8155   0.0139
0.8180   0.0178
0.8205   0.0222
0.8230   0.0271
0.8255   0.0324
0.8280   0.0382
0.8305   0.0446
0.8330   0.0511
0.8355   0.0564
0.8380   0.0603
0.8405   0.0637
0.8430   0.0667
0.8455   0.0694
0.8480   0.0717
0.8505   0.0736
0.8530   0.0752
0.8555   0.0765
0.8580   0.0775
0.8605   0.0782
0.8630   0.0786
0.8655   0.0787
0.8680   0.0785
0.8705   0.0780
0.8730   0.0772
0.8755   0.0763
0.8780   0.0751
0.8805   0.0738
0.8830   0.0723
0.8855   0.0708
0.8880   0.0693
0.8905   0.0674
0.8930   0.0632
0.8955   0.0581
0.8980   0.0543
0.9005   0.0526
0.9030   0.0523
0.9055   0.0522
0.9080   0.0512
0.9105   0.0496
0.9130   0.0481
0.9155   0.0473
0.9180   0.0476
0.9205   0.0482
0.9230   0.0476
0.9255   0.0447
0.9280   0.0391
0.9305   0.0329
0.9330   0.0283
0.9355   0.0264
0.9380   0.0271
0.9405   0.0283
0.9430   0.0275
0.9455   0.0254
0.9480   0.0252
0.9505   0.0256
0.9530   0.0246
0.9555   0.0244
0.9580   0.0252
0.9605   0.0258
0.9630   0.0265
0.9655   0.0274
0.9680   0.0279
0.9705   0.0271
0.9730   0.0252
0.9755   0.0236
0.9780   0.0227
0.9805   0.0222
0.9830   0.0216
0.9855   0.0208
0.9880   0.0196
0.9905   0.0183
0.9930   0.0171
0.9955   0.0160
0.9980   0.0149
1.0005   0.0138
1.0030   0.0128
1.0055   0.0118
1.0080   0.0108
1.0105   0.0099
1.0130   0.0091
1.0155   0.0083
1.0180   0.0075
1.0205   0.0068
1.0230   0.0061
1.0255   0.0055
1.0280   0.0050
1.0305   0.0045
1.0330   0.0041
1.0355   0.0037
1.0380   0.0033
1.0405   0.0030
1.0430   0.0027
1.0455   0.0025
1.0480   0.0023
1.0505   0.0021
1.0530   0.0019
1.0555   0.0018
1.0580   0.0017
1.0605   0.0016
1.0630   0.0015
1.0655   0.0014
1.0680   0.0013
1.0705   0.0012
1.0730   0.0011
1.0755   0.0010
1.0780   0.0009
1.0805   0.0008
1.0830   0.0008
1.0855   0.0007
1.0880   0.0006
1.0905   0.0006
1.0930   0.0006
1.0955   0.0005
1.0980   0.0005
1.1005   0.0004
1.1030   0.0004
1.1055   0.0003
1.1080   0.0003
1.1105   0.0002
1.1130   0.0002
1.1155   0.0001
1.1180   0.0001
1.1205   0.0000
1.1230   0.0000
