# New G.A.S. format
# filter of LABOCA
# After the "START" signal, the file is bild as follow:
# Filter name
# nwave: number of wavelenght
# center wavelenght [micron]
# and for l=1 to nwave, lambda [micron] | transmission [without unit]
START
LABOCA
127
908.46199
640.92591   0.0000464
643.16721   0.0001637
645.42285   0.0002282
647.69577   0.0003662
649.98472   0.0005112
652.28994   0.0005698
654.61158   0.0006174
656.94833   0.0007209
659.30332   0.0007890
661.67518   0.0007699
664.06424   0.0007755
666.47054   0.0008662
668.89294   0.0009415
671.33444   0.0009810
673.79388   0.0010800
676.27140   0.0012100
678.76566   0.0012200
681.27990   0.0011700
683.81288   0.0011900
686.36477   0.0012900
688.93573   0.0013800
691.52445   0.0015300
694.13434   0.0018500
696.76400   0.0021900
699.41360   0.0023900
702.08349   0.0027700
704.77214   0.0037100
707.48318   0.0047100
710.21516   0.0052500
712.96824   0.0057800
715.74284   0.0063100
718.53733   0.0063600
721.35551   0.0065200
724.19583   0.0080400
727.05866   0.0105000
729.94241   0.0122800
732.85094   0.0131800
735.78269   0.0135400
738.73805   0.0128400
741.71724   0.0112800
744.71869   0.0106600
747.74635   0.0116600
750.79880   0.0135200
753.87626   0.0159700
756.97900   0.0191600
760.10556   0.0232800
763.25987   0.0288600
766.44058   0.0381300
769.64780   0.0539800
772.88011   0.0769700
776.14159   0.1059200
779.43077   0.1405300
782.74795   0.1808300
786.09343   0.2266500
789.46558   0.2783800
792.86891   0.3344700
796.30171   0.3910400
799.76431   0.4444700
803.25721   0.4926000
806.77856   0.5362900
810.33313   0.5795000
813.91910   0.6235900
817.53701   0.6648900
821.18723   0.6994900
824.86788   0.7242900
828.58403   0.7377100
832.33370   0.7430100
836.11758   0.7480700
839.93359   0.7602600
843.78702   0.7851600
847.67590   0.8217900
851.60086   0.8628400
855.56234   0.9014300
859.55836   0.9316500
863.59432   0.9483000
867.66843   0.9521100
871.78117   0.9508400
875.93300   0.9510900
880.12204   0.9550800
884.35397   0.9628900
888.62679   0.9739500
892.94103   0.9862200
897.29481   0.9962900
901.69380   1.0000000
906.13627   0.9917900
910.62260   0.9703200
915.15371   0.9379100
919.72723   0.8975900
924.34960   0.8554900
929.01867   0.8215200
933.73506   0.8015000
938.49967   0.7930300
943.31016   0.7875000
948.17324   0.7708900
953.08664   0.6956600
958.05131   0.5200200
963.06798   0.3448600
968.13430   0.1624100
973.25731   0.0994500
978.43492   0.0603600
983.66791   0.0363500
988.95385   0.0217600
994.30030   0.0130100
999.70471   0.0078200
1005.16836   0.0047400
1010.69189   0.0029000
1016.27321   0.0017800
1021.91984   0.0011000
1027.62967   0.0006730
1033.40366   0.0004092
1039.24280   0.0002465
1045.14472   0.0001475
1051.11779   0.0000877
1057.15952   0.0000518
1063.27100   0.0000305
1069.44981   0.0000180
1075.70474   0.0000106
1082.03328   0.0000063
1088.43660   0.0000037
1094.91628   0.0000021
1101.46945   0.0000012
1108.10575   0.0000007
1114.82237   0.0000004
1121.62096   0.0000002
1128.50302   0.0000001
1135.46567   0.0000001
1142.51916   0.0000000
