# New G.A.S. format
# filter of IRCS_K
# download from  "Filter Profile Service" (http://svo2.cab.inta-csic.es/theory/fps)
# Wavelenght table as been reduced by a factor 7
# After the "START" signal, the file is bild as follow:
# Filter name
# nwave: number of wavelenght
# center wavelenght [micron]
# and for l=1 to nwave, lambda [micron] | transmission [without unit]
START
IRCS_K
126
2.19804
1.96950   0.0049800
1.97250   0.0028650
1.97600   0.0055440
1.97950   0.0057050
1.98300   0.0080620
1.98650   0.0104370
1.99000   0.0127930
1.99350   0.0156850
1.99700   0.0210360
2.00050   0.0263810
2.00400   0.0375760
2.00750   0.0497070
2.01100   0.0724110
2.01450   0.1064030
2.01800   0.1564490
2.02150   0.2267920
2.02500   0.3230160
2.02850   0.4316310
2.03200   0.5401100
2.03550   0.6300920
2.03900   0.6991020
2.04250   0.7481900
2.04600   0.7866270
2.04950   0.8160930
2.05300   0.8416940
2.05650   0.8600420
2.06000   0.8738490
2.06350   0.8787920
2.06700   0.8854050
2.07050   0.8846050
2.07400   0.8804820
2.07750   0.8814460
2.08100   0.8805960
2.08450   0.8881720
2.08800   0.8958140
2.09150   0.9024640
2.09500   0.9126660
2.09850   0.9228760
2.10200   0.9294360
2.10550   0.9346940
2.10900   0.9402360
2.11250   0.9391370
2.11600   0.9370610
2.11950   0.9315980
2.12300   0.9223030
2.12650   0.9160900
2.13000   0.9135730
2.13350   0.9065010
2.13700   0.8980250
2.14050   0.8915380
2.14400   0.8926770
2.14750   0.8878920
2.15100   0.8854960
2.15450   0.8897940
2.15800   0.8951540
2.16150   0.8962840
2.16500   0.9002240
2.16850   0.9071400
2.17200   0.9135380
2.17550   0.9171120
2.17900   0.9230840
2.18250   0.9312690
2.18600   0.9298790
2.18950   0.9312230
2.19300   0.9248510
2.19650   0.9266350
2.20000   0.9247760
2.20350   0.9223020
2.20700   0.9234290
2.21050   0.9226550
2.21400   0.9214690
2.21750   0.9306500
2.22100   0.9365620
2.22450   0.9395350
2.22800   0.9417110
2.23150   0.9457840
2.23500   0.9450810
2.23850   0.9515800
2.24200   0.9502520
2.24550   0.9513640
2.24900   0.9486230
2.25250   0.9471600
2.25600   0.9468670
2.25950   0.9426480
2.26300   0.9456140
2.26650   0.9437470
2.27000   0.9496390
2.27350   0.9535670
2.27700   0.9520510
2.28050   0.9551950
2.28400   0.9585990
2.28750   0.9584080
2.29100   0.9615560
2.29450   0.9630930
2.29800   0.9607240
2.30150   0.9580390
2.30500   0.9510210
2.30850   0.9516420
2.31200   0.9477140
2.31550   0.9441550
2.31900   0.9427130
2.32250   0.9413520
2.32600   0.9391190
2.32950   0.9381740
2.33300   0.9420410
2.33650   0.9473110
2.34000   0.9548460
2.34350   0.9611940
2.34700   0.9626910
2.35050   0.9515580
2.35400   0.9191670
2.35750   0.8361990
2.36100   0.7088160
2.36450   0.5507970
2.36800   0.3935090
2.37150   0.2648470
2.37500   0.1755690
2.37850   0.1145420
2.38200   0.0761230
2.38550   0.0483370
2.38900   0.0340010
2.39250   0.0223260
2.39600   0.0170340
2.39950   0.0117080
2.40300   0.0089830
2.40650   0.0061630
