# New G.A.S. format
# filter of Spitzer IRAC 8.0 micron
# After the "START" signal, the file is bild as follow:
# File name
# nwave: number of wavelenght
# center wavelenght [micron]
# and for l=1 to nwave, lambda [micron] | transmission [without unit]
START
IRAC_8_0
201
8.0
5.6120  0.000352000
5.6360  0.000152000
5.6590  0.000141000
5.6830  0.000169000
5.7060  0.000147000
5.7290  0.000243000
5.7530  0.000179000
5.7760  0.000101000
5.8000  0.000187000
5.8230  0.000210000
5.8470  0.000197000
5.8700  0.000354000
5.8940  0.000265000
5.9170  0.000248000
5.9400  0.000383000
5.9640  0.000335000
5.9870  7.10000e-05
6.0110  0.000271000
6.0340  0.000590000
6.0580  0.000262000
6.0810  0.000343000
6.1040  0.000515000
6.1280  0.000303000
6.1510  0.000240000
6.1750  0.000271000
6.1980  0.000350000
6.2220  0.000243000
6.2450  0.000347000
6.2690  0.000495000
6.2920  0.000755000
6.3150  0.00100100
6.3390  0.00250600
6.3620  0.0116800
6.3860  0.0454400
6.4090  0.101000
6.4330  0.162800
6.4560  0.226300
6.4800  0.250100
6.5030  0.271600
6.5260  0.295600
6.5500  0.310800
6.5730  0.315200
6.5970  0.319200
6.6200  0.318500
6.6440  0.316000
6.6670  0.312900
6.6900  0.298500
6.7140  0.301300
6.7370  0.319900
6.7610  0.323800
6.7840  0.327500
6.8080  0.336600
6.8310  0.342800
6.8550  0.344100
6.8780  0.344500
6.9010  0.344600
6.9250  0.341300
6.9480  0.339200
6.9720  0.344400
6.9950  0.343000
7.0190  0.331900
7.0420  0.329400
7.0660  0.334900
7.0890  0.332300
7.1120  0.330200
7.1360  0.337000
7.1590  0.341900
7.1830  0.334100
7.2060  0.330800
7.2300  0.337500
7.2530  0.349100
7.2760  0.353400
7.3000  0.350000
7.3230  0.346400
7.3470  0.346700
7.3700  0.352000
7.3940  0.357700
7.4170  0.360200
7.4410  0.355800
7.4640  0.348400
7.4870  0.349100
7.5110  0.365000
7.5340  0.379900
7.5580  0.386500
7.5810  0.390300
7.6050  0.395000
7.6280  0.392900
7.6520  0.385200
7.6750  0.383700
7.6980  0.392700
7.7220  0.398900
7.7450  0.395100
7.7690  0.390100
7.7920  0.390200
7.8160  0.393200
7.8390  0.393800
7.8620  0.397700
7.8860  0.406700
7.9090  0.412800
7.9330  0.410800
7.9560  0.403400
7.9800  0.399500
8.0030  0.402000
8.0270  0.407900
8.0500  0.414300
8.0730  0.414900
8.0970  0.414800
8.1200  0.418600
8.1440  0.423400
8.1670  0.422200
8.1910  0.417100
8.2140  0.414000
8.2380  0.418600
8.2610  0.424600
8.2840  0.426400
8.3080  0.423600
8.3310  0.424600
8.3550  0.426400
8.3780  0.425800
8.4020  0.417800
8.4250  0.413700
8.4480  0.416500
8.4720  0.425000
8.4950  0.427700
8.5190  0.425200
8.5420  0.419700
8.5660  0.419600
8.5890  0.421900
8.6130  0.421500
8.6360  0.421400
8.6590  0.420500
8.6830  0.416500
8.7060  0.405400
8.7300  0.392500
8.7530  0.386500
8.7770  0.388200
8.8000  0.397400
8.8240  0.405100
8.8470  0.406200
8.8700  0.401100
8.8940  0.396400
8.9170  0.393200
8.9410  0.391300
8.9640  0.388200
8.9880  0.386700
9.0110  0.384900
9.0340  0.382400
9.0580  0.376500
9.0810  0.370500
9.1050  0.366700
9.1280  0.364200
9.1520  0.361100
9.1750  0.355100
9.1990  0.343300
9.2220  0.325500
9.2450  0.304100
9.2690  0.279000
9.2920  0.251800
9.3160  0.227900
9.3390  0.206100
9.3630  0.184000
9.3860  0.157300
9.4100  0.129000
9.4330  0.103500
9.4560  0.0807000
9.4800  0.0584400
9.5030  0.0392200
9.5270  0.0238400
9.5500  0.0144000
9.5740  0.00947400
9.5970  0.00640900
9.6200  0.00443900
9.6440  0.00319000
9.6670  0.00240900
9.6910  0.00113000
9.7140  0.00174200
9.7380  0.00163300
9.7610  0.000983000
9.7850  0.000778000
9.8080  0.000577000
9.8310  0.000738000
9.8550  0.000468000
9.8780  0.000548000
9.9020  0.000540000
9.9250  0.000570000
9.9490  0.000723000
9.9720  0.000294000
9.9960  0.000401000
10.0200  0.000297000
10.0400  0.000537000
10.0700  0.000830000
10.0900  0.000794000
10.1100  0.000253000
10.1400  9.00000e-05
10.1600  0.000224000
10.1800  0.000612000
10.2100  0.000669000
10.2300  0.000867000
10.2500  0.000899000
10.2800  0.000675000
10.3000  0.000359000
