# New G.A.S. format
# filter of Spitzer IRAC 3.6 micron
# After the "START" signal, the file is bild as follow:
# File name
# nwave: number of wavelenght
# center wavelenght [micron]
# and for l=1 to nwave, lambda [micron] | transmission [without unit]
START
IRAC_3_6
201
3.6 
2.885  0.000431000
2.892  0.000668000
2.898  0.000546000
2.905  0.000401000
2.912  0.000378000
2.919  0.000288000
2.925  0.000567000
2.932  0.00114000
2.939  0.00116100
2.946  0.000589000
2.952  0.00108800
2.959  0.000848000
2.966  0.00115300
2.973  0.000509000
2.979  0.00133400
2.986  0.00113200
2.993  0.00154000
3.000  0.000905000
3.006  0.000194000
3.013  0.000719000
3.020  0.000697000
3.027  0.000671000
3.033  0.000860000
3.040  0.000453000
3.047  0.000735000
3.054  0.000416000
3.060  0.000563000
3.067  0.000855000
3.074  0.000568000
3.081  0.000468000
3.087  0.000241000
3.094  0.000532000
3.101  0.000497000
3.108  0.00136700
3.114  0.00216000
3.121  0.00352900
3.128  0.00585200
3.135  0.00898400
3.141  0.0160300
3.148  0.0268900
3.155  0.0492700
3.162  0.0887500
3.168  0.154800
3.175  0.248700
3.182  0.354900
3.189  0.446900
3.195  0.507300
3.202  0.530100
3.209  0.529600
3.216  0.515500
3.222  0.501600
3.229  0.490600
3.236  0.487900
3.243  0.492400
3.249  0.505800
3.256  0.522700
3.263  0.541700
3.270  0.558800
3.276  0.574700
3.283  0.583800
3.290  0.586000
3.297  0.585700
3.303  0.581500
3.310  0.576600
3.317  0.572600
3.324  0.568200
3.330  0.567300
3.337  0.569600
3.344  0.569800
3.351  0.570700
3.357  0.568200
3.364  0.565800
3.371  0.560900
3.378  0.561800
3.384  0.561700
3.391  0.570200
3.398  0.580800
3.405  0.592600
3.411  0.602500
3.418  0.606700
3.425  0.612300
3.432  0.605600
3.438  0.600500
3.445  0.590400
3.452  0.582500
3.459  0.576900
3.465  0.577100
3.472  0.577700
3.479  0.585300
3.486  0.596000
3.492  0.606500
3.499  0.618300
3.506  0.625600
3.513  0.635200
3.519  0.640700
3.526  0.642700
3.533  0.645200
3.540  0.639400
3.546  0.636400
3.553  0.634100
3.560  0.629500
3.567  0.628600
3.573  0.623700
3.580  0.624300
3.587  0.625400
3.594  0.629600
3.600  0.631500
3.607  0.631300
3.614  0.634000
3.621  0.632600
3.627  0.632100
3.634  0.626400
3.641  0.621800
3.648  0.615200
3.654  0.609100
3.661  0.604200
3.668  0.601800
3.675  0.602900
3.681  0.604500
3.688  0.608400
3.695  0.616400
3.702  0.622700
3.708  0.630500
3.715  0.639000
3.722  0.641400
3.729  0.647000
3.735  0.649100
3.742  0.651100
3.749  0.650300
3.756  0.648800
3.762  0.644000
3.769  0.641400
3.776  0.636900
3.783  0.633200
3.789  0.630700
3.796  0.629700
3.803  0.627700
3.810  0.626100
3.816  0.624100
3.823  0.619900
3.830  0.615500
3.837  0.608800
3.843  0.600600
3.850  0.592600
3.857  0.586600
3.864  0.584100
3.870  0.589000
3.877  0.596200
3.884  0.604600
3.891  0.613000
3.897  0.609600
3.904  0.588000
3.911  0.535400
3.918  0.447500
3.924  0.335600
3.931  0.225900
3.938  0.138000
3.945  0.0791600
3.951  0.0443400
3.958  0.0247600
3.965  0.0140500
3.972  0.00818900
3.978  0.00482600
3.985  0.00292400
3.992  0.00213500
3.999  0.00123600
4.005  0.000902000
4.012  0.000544000
4.019  0.000650000
4.026  0.000581000
4.032  0.000701000
4.039  0.000594000
4.046  0.000614000
4.053  0.000640000
4.059  0.000687000
4.066  0.000594000
4.073  0.000579000
4.080  0.000330000
4.086  0.000316000
4.093  0.000323000
4.100  0.000263000
4.107  0.000179000
4.113  0.000377000
4.120  0.000374000
4.127  0.000252000
4.134  0.000244000
4.140  0.000478000
4.147  0.000363000
4.154  0.000312000
4.161  0.000173000
4.167  0.000280000
4.174  0.000389000
4.181  0.000556000
4.188  0.000564000
4.194  0.000458000
4.201  0.000319000
4.208  0.000292000
4.215  0.000250000
4.221  0.000223000
4.228  0.000267000
4.235  0.000336000
