# New G.A.S. format
# filter of Spitzer IRAC 5.8 micron
# After the "START" signal, the file is bild as follow:
# File name
# nwave: number of wavelenght
# center wavelenght [micron]
# and for l=1 to nwave, lambda [micron] | transmission [without unit]
START
IRAC_5_8
201
5.8
4.3940  7.20000e-05
4.4070  9.70000e-05
4.4200  0.000103000
4.4330  0.000204000
4.4460  0.000169000
4.4590  0.000126000
4.4720  0.000129000
4.4840  0.000173000
4.4970  0.000189000
4.5100  0.000143000
4.5230  0.000172000
4.5360  0.000173000
4.5490  0.000210000
4.5620  0.000242000
4.5750  0.000319000
4.5880  0.000335000
4.6010  0.000310000
4.6140  0.000311000
4.6270  0.000222000
4.6390  0.000271000
4.6520  0.000337000
4.6650  0.000263000
4.6780  0.000242000
4.6910  0.000217000
4.7040  0.000180000
4.7170  2.60000e-05
4.7300  0.000161000
4.7430  0.000159000
4.7560  9.10000e-05
4.7690  0.000253000
4.7820  0.000303000
4.7940  0.000281000
4.8070  0.000208000
4.8200  0.000212000
4.8330  0.000153000
4.8460  0.000225000
4.8590  0.000362000
4.8720  0.000187000
4.8850  0.000246000
4.8980  0.000865000
4.9110  0.000137000
4.9240  0.00160100
4.9360  0.00661200
4.9490  0.0192800
4.9620  0.0468400
4.9750  0.0837800
4.9880  0.122200
5.0010  0.158400
5.0140  0.191000
5.0270  0.216500
5.0400  0.228100
5.0530  0.224700
5.0660  0.220000
5.0790  0.226600
5.0910  0.244400
5.1040  0.263300
5.1170  0.274400
5.1300  0.277100
5.1430  0.274200
5.1560  0.269300
5.1690  0.264500
5.1820  0.260900
5.1950  0.260000
5.2080  0.264300
5.2210  0.272800
5.2340  0.281000
5.2460  0.284800
5.2590  0.282200
5.2720  0.273700
5.2850  0.261900
5.2980  0.252200
5.3110  0.249300
5.3240  0.254800
5.3370  0.265500
5.3500  0.275200
5.3630  0.279300
5.3760  0.280200
5.3890  0.279900
5.4010  0.278400
5.4140  0.276000
5.4270  0.272900
5.4400  0.269600
5.4530  0.267100
5.4660  0.265100
5.4790  0.263300
5.4920  0.261700
5.5050  0.259900
5.5180  0.257300
5.5310  0.256500
5.5440  0.259000
5.5560  0.264900
5.5690  0.269900
5.5820  0.271800
5.5950  0.269100
5.6080  0.265900
5.6210  0.262700
5.6340  0.261600
5.6470  0.262400
5.6600  0.264700
5.6730  0.268000
5.6860  0.269000
5.6980  0.267400
5.7110  0.264800
5.7240  0.262800
5.7370  0.265000
5.7500  0.269600
5.7630  0.272000
5.7760  0.269100
5.7890  0.263900
5.8020  0.260100
5.8150  0.260100
5.8280  0.262600
5.8410  0.263900
5.8530  0.264400
5.8660  0.264400
5.8790  0.265500
5.8920  0.264700
5.9050  0.263800
5.9180  0.261400
5.9310  0.258600
5.9440  0.256700
5.9570  0.256700
5.9700  0.259900
5.9830  0.261300
5.9960  0.261300
6.0080  0.257500
6.0210  0.253200
6.0340  0.249500
6.0470  0.249800
6.0600  0.249200
6.0730  0.250700
6.0860  0.248500
6.0990  0.246000
6.1120  0.242000
6.1250  0.236800
6.1380  0.232700
6.1510  0.230600
6.1630  0.229900
6.1760  0.230000
6.1890  0.231900
6.2020  0.232900
6.2150  0.231800
6.2280  0.227100
6.2410  0.219400
6.2540  0.211500
6.2670  0.206600
6.2800  0.206300
6.2930  0.209900
6.3050  0.214800
6.3180  0.217400
6.3310  0.217200
6.3440  0.215700
6.3570  0.211800
6.3700  0.205400
6.3830  0.190100
6.3960  0.168900
6.4090  0.145400
6.4220  0.124000
6.4350  0.103200
6.4480  0.0795300
6.4600  0.0531200
6.4730  0.0295100
6.4860  0.0141700
6.4990  0.00576300
6.5120  0.00247200
6.5250  0.00116300
6.5380  0.000589000
6.5510  0.000345000
6.5640  0.000166000
6.5770  0.000146000
6.5900  0.000200000
6.6030  0.000154000
6.6150  0.000128000
6.6280  0.000191000
6.6410  0.000145000
6.6540  0.000102000
6.6670  0.000128000
6.6800  0.000120000
6.6930  3.10000e-05
6.7060  4.00000e-05
6.7190  6.20000e-05
6.7320  0.000125000
6.7450  6.80000e-05
6.7580  7.50000e-05
6.7700  0.000183000
6.7830  0.000109000
6.7960  0.000146000
6.8090  0.000179000
6.8220  7.30000e-05
6.8350  0.000113000
6.8480  0.000116000
6.8610  9.70000e-05
6.8740  8.10000e-05
6.8870  9.90000e-05
6.9000  0.000138000
6.9120  0.000113000
6.9250  9.30000e-05
6.9380  0.000131000
6.9510  0.000149000
6.9640  0.000158000
6.9770  0.000143000
