# New eGalICS format
# filter of Spitzer IRAC 8.0 micron
# After the "START" signal, the file is bild as follow:
# File name
# nwave: number of wavelenght
# center wavelenght [micron]
# and for l=1 to nwave, lambda [micron] | transmission [without unit]
START
IRAC_8_0
201
8.0
0.56120  0.000352000
0.56360  0.000152000
0.56590  0.000141000
0.56830  0.000169000
0.57060  0.000147000
0.57290  0.000243000
0.57530  0.000179000
0.57760  0.000101000
0.58000  0.000187000
0.58230  0.000210000
0.58470  0.000197000
0.58700  0.000354000
0.58940  0.000265000
0.59170  0.000248000
0.59400  0.000383000
0.59640  0.000335000
0.59870  7.10000e-05
0.60110  0.000271000
0.60340  0.000590000
0.60580  0.000262000
0.60810  0.000343000
0.61040  0.000515000
0.61280  0.000303000
0.61510  0.000240000
0.61750  0.000271000
0.61980  0.000350000
0.62220  0.000243000
0.62450  0.000347000
0.62690  0.000495000
0.62920  0.000755000
0.63150  0.00100100
0.63390  0.00250600
0.63620  0.0116800
0.63860  0.0454400
0.64090  0.101000
0.64330  0.162800
0.64560  0.226300
0.64800  0.250100
0.65030  0.271600
0.65260  0.295600
0.65500  0.310800
0.65730  0.315200
0.65970  0.319200
0.66200  0.318500
0.66440  0.316000
0.66670  0.312900
0.66900  0.298500
0.67140  0.301300
0.67370  0.319900
0.67610  0.323800
0.67840  0.327500
0.68080  0.336600
0.68310  0.342800
0.68550  0.344100
0.68780  0.344500
0.69010  0.344600
0.69250  0.341300
0.69480  0.339200
0.69720  0.344400
0.69950  0.343000
0.70190  0.331900
0.70420  0.329400
0.70660  0.334900
0.70890  0.332300
0.71120  0.330200
0.71360  0.337000
0.71590  0.341900
0.71830  0.334100
0.72060  0.330800
0.72300  0.337500
0.72530  0.349100
0.72760  0.353400
0.73000  0.350000
0.73230  0.346400
0.73470  0.346700
0.73700  0.352000
0.73940  0.357700
0.74170  0.360200
0.74410  0.355800
0.74640  0.348400
0.74870  0.349100
0.75110  0.365000
0.75340  0.379900
0.75580  0.386500
0.75810  0.390300
0.76050  0.395000
0.76280  0.392900
0.76520  0.385200
0.76750  0.383700
0.76980  0.392700
0.77220  0.398900
0.77450  0.395100
0.77690  0.390100
0.77920  0.390200
0.78160  0.393200
0.78390  0.393800
0.78620  0.397700
0.78860  0.406700
0.79090  0.412800
0.79330  0.410800
0.79560  0.403400
0.79800  0.399500
0.80030  0.402000
0.80270  0.407900
0.80500  0.414300
0.80730  0.414900
0.80970  0.414800
0.81200  0.418600
0.81440  0.423400
0.81670  0.422200
0.81910  0.417100
0.82140  0.414000
0.82380  0.418600
0.82610  0.424600
0.82840  0.426400
0.83080  0.423600
0.83310  0.424600
0.83550  0.426400
0.83780  0.425800
0.84020  0.417800
0.84250  0.413700
0.84480  0.416500
0.84720  0.425000
0.84950  0.427700
0.85190  0.425200
0.85420  0.419700
0.85660  0.419600
0.85890  0.421900
0.86130  0.421500
0.86360  0.421400
0.86590  0.420500
0.86830  0.416500
0.87060  0.405400
0.87300  0.392500
0.87530  0.386500
0.87770  0.388200
0.88000  0.397400
0.88240  0.405100
0.88470  0.406200
0.88700  0.401100
0.88940  0.396400
0.89170  0.393200
0.89410  0.391300
0.89640  0.388200
0.89880  0.386700
0.90110  0.384900
0.90340  0.382400
0.90580  0.376500
0.90810  0.370500
0.91050  0.366700
0.91280  0.364200
0.91520  0.361100
0.91750  0.355100
0.91990  0.343300
0.92220  0.325500
0.92450  0.304100
0.92690  0.279000
0.92920  0.251800
0.93160  0.227900
0.93390  0.206100
0.93630  0.184000
0.93860  0.157300
0.94100  0.129000
0.94330  0.103500
0.94560  0.0807000
0.94800  0.0584400
0.95030  0.0392200
0.95270  0.0238400
0.95500  0.0144000
0.95740  0.00947400
0.95970  0.00640900
0.96200  0.00443900
0.96440  0.00319000
0.96670  0.00240900
0.96910  0.00113000
0.97140  0.00174200
0.97380  0.00163300
0.97610  0.000983000
0.97850  0.000778000
0.98080  0.000577000
0.98310  0.000738000
0.98550  0.000468000
0.98780  0.000548000
0.99020  0.000540000
0.99250  0.000570000
0.99490  0.000723000
0.99720  0.000294000
0.99960  0.000401000
1.00200  0.000297000
1.00400  0.000537000
1.00700  0.000830000
1.00900  0.000794000
1.01100  0.000253000
1.01400  9.00000e-05
1.01600  0.000224000
1.01800  0.000612000
1.02100  0.000669000
1.02300  0.000867000
1.02500  0.000899000
1.02800  0.000675000
1.03000  0.000359000
