# New G.A.S. format
# filter of F115W
# download from  "Filter Profile Service" (http://svo2.cab.inta-csic.es/theory/fps)
# Wavelenght table as been reduced by a factor 3
# After the "START" signal, the file is bild as follow:
# Filter name
# nwave: number of wavelenght
# center wavelenght [micron]
# and for l=1 to nwave, lambda [micron] | transmission [without unit]
START
F115W
139
1.15400
0.96800   0.0000108
0.97000   0.0000155
0.97300   0.0000244
0.97600   0.0000326
0.97900   0.0000465
0.98200   0.0000802
0.98500   0.0001570
0.98800   0.0002980
0.99100   0.0005100
0.99400   0.0008200
0.99700   0.0013600
1.00000   0.1500000
1.00300   0.2120000
1.00600   0.3060000
1.00900   0.4460000
1.01200   0.5900000
1.01500   0.7100000
1.01800   0.7510000
1.02100   0.7510000
1.02400   0.7460000
1.02700   0.7510000
1.03000   0.7610000
1.03300   0.7750000
1.03600   0.7970000
1.03900   0.8090000
1.04200   0.8190000
1.04500   0.8210000
1.04800   0.8300000
1.05100   0.8400000
1.05400   0.8470000
1.05700   0.8470000
1.06000   0.8400000
1.06300   0.8260000
1.06600   0.8150000
1.06900   0.7950000
1.07200   0.7810000
1.07500   0.7640000
1.07800   0.7560000
1.08100   0.7530000
1.08400   0.7530000
1.08700   0.7590000
1.09000   0.7690000
1.09300   0.7830000
1.09600   0.7950000
1.09900   0.8150000
1.10200   0.8170000
1.10500   0.8230000
1.10800   0.8200000
1.11100   0.8180000
1.11400   0.8160000
1.11700   0.8140000
1.12000   0.8140000
1.12300   0.8080000
1.12600   0.8100000
1.12900   0.8120000
1.13200   0.8160000
1.13500   0.8190000
1.13800   0.8250000
1.14100   0.8300000
1.14400   0.8450000
1.14700   0.8580000
1.15000   0.8730000
1.15300   0.8860000
1.15600   0.8980000
1.15900   0.9070000
1.16200   0.9140000
1.16500   0.9200000
1.16800   0.9270000
1.17100   0.9270000
1.17400   0.9300000
1.17700   0.9300000
1.18000   0.9240000
1.18300   0.9270000
1.18600   0.9240000
1.18900   0.9220000
1.19200   0.9220000
1.19500   0.9170000
1.19800   0.9110000
1.20100   0.9070000
1.20400   0.9040000
1.20700   0.8990000
1.21000   0.8990000
1.21300   0.9000000
1.21600   0.8980000
1.21900   0.9050000
1.22200   0.9100000
1.22500   0.9170000
1.22800   0.9250000
1.23100   0.9360000
1.23400   0.9480000
1.23700   0.9580000
1.24000   0.9650000
1.24300   0.9700000
1.24600   0.9780000
1.24900   0.9790000
1.25200   0.9800000
1.25500   0.9740000
1.25800   0.9770000
1.26100   0.9810000
1.26400   0.9800000
1.26700   0.9790000
1.27000   0.9650000
1.27300   0.9180000
1.27600   0.8170000
1.27900   0.6380000
1.28200   0.4330000
1.28500   0.2900000
1.28800   0.1860000
1.29100   0.1250000
1.29400   0.0852000
1.29700   0.0566000
1.30000   0.0323000
1.30300   0.0177000
1.30600   0.0098200
1.30900   0.0055500
1.31200   0.0032300
1.31500   0.0019500
1.31800   0.0012100
1.32100   0.0007700
1.32400   0.0005090
1.32700   0.0003450
1.33000   0.0002370
1.33300   0.0001670
1.33600   0.0001200
1.33900   0.0000874
1.34200   0.0000679
1.34500   0.0000518
1.34800   0.0000397
1.35100   0.0000312
1.35400   0.0000223
1.35700   0.0000201
1.36000   0.0000164
1.36300   0.0000156
1.36600   0.0000111
1.36900   0.0000123
1.37200   0.0000115
1.37500   0.0000102
1.37800   0.0000113
1.38100   0.0000098
