# New G.A.S. format
# filter of F200W
# download from  "Filter Profile Service" (http://svo2.cab.inta-csic.es/theory/fps)
# Wavelenght table as been reduced by a factor 7
# After the "START" signal, the file is bild as follow:
# Filter name
# nwave: number of wavelenght
# center wavelenght [micron]
# and for l=1 to nwave, lambda [micron] | transmission [without unit]
START
F200W
130
1.98900
1.61300   0.0000103
1.61900   0.0000115
1.62600   0.0000110
1.63300   0.0000122
1.64000   0.0000132
1.64700   0.0000176
1.65400   0.0000207
1.66100   0.0000281
1.66800   0.0000448
1.67500   0.0000739
1.68200   0.0001230
1.68900   0.0002090
1.69600   0.0003960
1.70300   0.0008670
1.71000   0.0020500
1.71700   0.0048400
1.72400   0.0120000
1.73100   0.0347000
1.73800   0.0791000
1.74500   0.1670000
1.75200   0.4060000
1.75900   0.7000000
1.76600   0.8680000
1.77300   0.9690000
1.78000   0.9850000
1.78700   0.9840000
1.79400   0.9830000
1.80100   0.9640000
1.80800   0.9490000
1.81500   0.9510000
1.82200   0.9650000
1.82900   0.9770000
1.83600   0.9830000
1.84300   0.9830000
1.85000   0.9740000
1.85700   0.9670000
1.86400   0.9580000
1.87100   0.9660000
1.87800   0.9750000
1.88500   0.9830000
1.89200   0.9860000
1.89900   0.9910000
1.90600   0.9930000
1.91300   0.9960000
1.92000   0.9930000
1.92700   0.9860000
1.93400   0.9810000
1.94100   0.9750000
1.94800   0.9800000
1.95500   0.9830000
1.96200   0.9860000
1.96900   0.9820000
1.97600   0.9800000
1.98300   0.9820000
1.99000   0.9860000
1.99700   0.9880000
2.00400   0.9890000
2.01100   0.9860000
2.01800   0.9910000
2.02500   0.9960000
2.03200   0.9970000
2.03900   0.9980000
2.04600   0.9870000
2.05300   0.9810000
2.06000   0.9790000
2.06700   0.9850000
2.07400   0.9970000
2.08100   0.9980000
2.08800   0.9970000
2.09500   0.9900000
2.10200   0.9850000
2.10900   0.9820000
2.11600   0.9780000
2.12300   0.9760000
2.13000   0.9710000
2.13700   0.9700000
2.14400   0.9780000
2.15100   0.9820000
2.15800   0.9810000
2.16500   0.9720000
2.17200   0.9630000
2.17900   0.9650000
2.18600   0.9690000
2.19300   0.9700000
2.20000   0.9770000
2.20700   0.9740000
2.21400   0.9080000
2.22100   0.7000000
2.22800   0.4080000
2.23500   0.2130000
2.24200   0.0953000
2.24900   0.0377000
2.25600   0.0147000
2.26300   0.0059200
2.27000   0.0025300
2.27700   0.0012200
2.28400   0.0006550
2.29100   0.0003730
2.29800   0.0002250
2.30500   0.0001400
2.31200   0.0000912
2.31900   0.0000620
2.32600   0.0000458
2.33300   0.0000355
2.34000   0.0000287
2.34700   0.0000255
2.35400   0.0000227
2.36100   0.0000231
2.36800   0.0000216
2.37500   0.0000230
2.38200   0.0000222
2.38900   0.0000247
2.39600   0.0000240
2.40300   0.0000247
2.41000   0.0000282
2.41700   0.0000255
2.42400   0.0000308
2.43100   0.0000308
2.43800   0.0000325
2.44500   0.0000368
2.45200   0.0000370
2.45900   0.0000448
2.46600   0.0000378
2.47300   0.0000497
2.48000   0.0000520
2.48700   0.0000471
2.49400   0.0000553
2.50100   0.0000533
2.50800   0.0000643
2.51500   0.0000710
