# New G.A.S. format
# filter of F356W
# download from  "Filter Profile Service" (http://svo2.cab.inta-csic.es/theory/fps)
# Wavelenght table as been reduced by a factor 11
# After the "START" signal, the file is bild as follow:
# Filter name
# nwave: number of wavelenght
# center wavelenght [micron]
# and for l=1 to nwave, lambda [micron] | transmission [without unit]
START
F356W
123
3.56800
2.88620   0.0000103
2.89970   0.0000136
2.91460   0.0000222
2.92950   0.0000291
2.94430   0.0000297
2.95920   0.0000319
2.97410   0.0000476
2.98890   0.0001010
3.00380   0.0002250
3.01870   0.0005080
3.03350   0.0010500
3.04840   0.0022000
3.06320   0.0048700
3.07810   0.0114000
3.09300   0.0284000
3.10780   0.0733000
3.12270   0.1910000
3.13760   0.4380000
3.15240   0.7150000
3.16730   0.8380000
3.18220   0.8600000
3.19700   0.8630000
3.21190   0.8640000
3.22670   0.8650000
3.24160   0.8680000
3.25650   0.8720000
3.27130   0.8760000
3.28620   0.8800000
3.30110   0.8840000
3.31590   0.8900000
3.33080   0.8970000
3.34560   0.9020000
3.36050   0.9070000
3.37540   0.9120000
3.39020   0.9160000
3.40510   0.9200000
3.42000   0.9220000
3.43480   0.9230000
3.44970   0.9240000
3.46460   0.9250000
3.47940   0.9260000
3.49430   0.9280000
3.50910   0.9280000
3.52400   0.9280000
3.53890   0.9260000
3.55370   0.9260000
3.56860   0.9260000
3.58350   0.9270000
3.59830   0.9280000
3.61320   0.9300000
3.62810   0.9310000
3.64290   0.9320000
3.65780   0.9330000
3.67260   0.9340000
3.68750   0.9350000
3.70240   0.9350000
3.71720   0.9360000
3.73210   0.9360000
3.74700   0.9360000
3.76180   0.9350000
3.77670   0.9320000
3.79160   0.9280000
3.80640   0.9250000
3.82130   0.9250000
3.83610   0.9270000
3.85100   0.9290000
3.86590   0.9240000
3.88070   0.9120000
3.89560   0.8940000
3.91050   0.8730000
3.92530   0.8460000
3.94020   0.7890000
3.95510   0.6680000
3.96990   0.4870000
3.98480   0.3040000
3.99960   0.1720000
4.01450   0.0924000
4.02940   0.0492000
4.04420   0.0263000
4.05910   0.0143000
4.07400   0.0079600
4.08880   0.0045600
4.10370   0.0026900
4.11860   0.0016600
4.13340   0.0010500
4.14830   0.0007070
4.16310   0.0004900
4.17800   0.0003690
4.19290   0.0002780
4.20770   0.0002300
4.22260   0.0002080
4.23750   0.0001870
4.25230   0.0001540
4.26720   0.0001210
4.28210   0.0000980
4.29690   0.0001040
4.31180   0.0000764
4.32660   0.0000783
4.34150   0.0000757
4.35640   0.0000604
4.37120   0.0000481
4.38610   0.0000492
4.40100   0.0000418
4.41580   0.0000486
4.43070   0.0000401
4.44560   0.0000643
4.46040   0.0000399
4.47530   0.0000262
4.49010   0.0000207
4.50500   0.0000160
4.51990   0.0000144
4.53470   0.0000279
4.54960   0.0000131
4.56450   0.0000309
4.57930   0.0000254
4.59420   0.0000246
4.60910   0.0000177
4.62390   0.0000092
4.63880   0.0000094
4.65360   0.0000038
4.66850   0.0000020
4.68340   0.0000065
4.69820   0.0000149
