# New G.A.S. format
# filter of F444W
# download from  "Filter Profile Service" (http://svo2.cab.inta-csic.es/theory/fps)
# Wavelenght table as been reduced by a factor 12
# After the "START" signal, the file is bild as follow:
# Filter name
# nwave: number of wavelenght
# center wavelenght [micron]
# and for l=1 to nwave, lambda [micron] | transmission [without unit]
START
F444W
121
4.40800
3.30110   0.0000101
3.31590   0.0000128
3.33210   0.0000090
3.34840   0.0000109
3.36460   0.0000156
3.38080   0.0000149
3.39700   0.0000101
3.41320   0.0000176
3.42940   0.0000113
3.44560   0.0000190
3.46190   0.0000130
3.47810   0.0000199
3.49430   0.0000161
3.51050   0.0000235
3.52670   0.0000192
3.54290   0.0000261
3.55910   0.0000337
3.57540   0.0000323
3.59160   0.0000256
3.60780   0.0000348
3.62400   0.0000371
3.64020   0.0000285
3.65640   0.0000372
3.67260   0.0000392
3.68890   0.0000591
3.70510   0.0001200
3.72130   0.0003040
3.73750   0.0007650
3.75370   0.0017300
3.76990   0.0033000
3.78620   0.0056700
3.80240   0.0099300
3.81860   0.0196000
3.83480   0.0454000
3.85100   0.1210000
3.86720   0.3150000
3.88340   0.5890000
3.89970   0.7450000
3.91590   0.8070000
3.93210   0.8370000
3.94830   0.8480000
3.96450   0.8500000
3.98070   0.8530000
3.99690   0.8570000
4.01320   0.8600000
4.02940   0.8610000
4.04560   0.8620000
4.06180   0.8630000
4.07800   0.8640000
4.09420   0.8660000
4.11040   0.8690000
4.12670   0.8700000
4.14290   0.8690000
4.15910   0.8670000
4.17530   0.8650000
4.19150   0.8650000
4.20770   0.8660000
4.22390   0.8680000
4.24020   0.8680000
4.25640   0.8650000
4.27260   0.8630000
4.28880   0.8600000
4.30500   0.8590000
4.32120   0.8590000
4.33750   0.8610000
4.35370   0.8620000
4.36990   0.8600000
4.38610   0.8550000
4.40230   0.8500000
4.41850   0.8470000
4.43470   0.8460000
4.45100   0.8470000
4.46720   0.8480000
4.48340   0.8490000
4.49960   0.8490000
4.51580   0.8470000
4.53200   0.8450000
4.54820   0.8430000
4.56450   0.8410000
4.58070   0.8390000
4.59690   0.8360000
4.61310   0.8330000
4.62930   0.8270000
4.64550   0.8210000
4.66170   0.8140000
4.67800   0.8080000
4.69420   0.8050000
4.71040   0.8050000
4.72660   0.8080000
4.74280   0.8110000
4.75900   0.8140000
4.77530   0.8150000
4.79150   0.8150000
4.80770   0.8150000
4.82390   0.8170000
4.84010   0.8210000
4.85630   0.8250000
4.87250   0.8280000
4.88880   0.8260000
4.90500   0.8200000
4.92120   0.8140000
4.93740   0.8070000
4.95360   0.7950000
4.96980   0.7720000
4.98600   0.7250000
5.00230   0.6450000
5.01850   0.5270000
5.03470   0.3800000
5.05090   0.2340000
5.06710   0.1250000
5.08330   0.0615000
5.09950   0.0297000
5.11580   0.0146000
5.13200   0.0075000
5.14820   0.0036200
5.16440   0.0017700
5.18060   0.0008870
5.19680   0.0004480
5.21310   0.0002220
5.22930   0.0001070
5.24550   0.0000452
